#log10(E / eV)   log10(E*dN/dE / (cm-3 s-1))
17.9138427939 -29.9878459254
17.9510995267 -29.9534469566
18.0085337025 -29.8951950186
18.0783881384 -29.8276191496
18.1109866680 -29.7957548416
18.1699744808 -29.7380913070
18.2336216369 -29.6797035836
18.2693273607 -29.6488893494
18.3314260045 -29.5980512944
18.4012932380 -29.5507979741
18.4385588117 -29.5304383930
18.5068849384 -29.5024945800
18.5814337242 -29.4897850662
18.6202661264 -29.4909618731
18.6917284868 -29.5101830512
18.7616512809 -29.5511600685
18.7973945252 -29.5799284693
18.8580117857 -29.6432406766
18.9170860063 -29.7227928182
18.9466262291 -29.7675114777
18.9886106654 -29.8409442238
19.0368204690 -29.9339119632
19.0648148836 -29.9904743429
