#log10(E / eV)   log10(E*dN/dE / (cm-3 s-1))
17.0110193427 -28.4135216227
17.0452084611 -28.3822361549
17.0793959468 -28.3483792788
17.1135830244 -28.3138795506
17.1477699659 -28.2791655384
17.1819573156 -28.2450943783
17.2161448014 -28.2112375022
17.2503318789 -28.1767377740
17.2845190926 -28.1424523298
17.3187067144 -28.1088097378
17.3528931117 -28.0732385895
17.3870807335 -28.0395959974
17.4212675390 -28.0046677011
17.4554548886 -27.9705965410
17.4896421023 -27.9363110969
17.5238299962 -27.9030970728
17.5580174819 -27.8692401967
17.5922042874 -27.8343119005
17.6263920453 -27.8008835925
17.6605791228 -27.7663838643
17.6947666086 -27.7325269882
17.7289539583 -27.6984558280
17.7631411719 -27.6641703839
17.7973287937 -27.6305277918
17.8315164155 -27.5968851997
17.8657040373 -27.5632426077
17.8998926115 -27.5311000038
17.9340807775 -27.4983145478
17.9682692156 -27.4659576599
18.0024590142 -27.4357436122
18.0366485408 -27.4051009965
18.0708384755 -27.3751012329
18.1050303149 -27.3481014456
18.1392226986 -27.3219587944
18.1734161707 -27.2975304155
18.2076105951 -27.2746020247
18.2418062441 -27.2536021902
18.2760031175 -27.2345309118
18.3102008072 -27.2167453377
18.3444014902 -27.2036740121
18.3786023091 -27.1908169705
18.4128058492 -27.1822456095
18.4470111579 -27.1764599408
18.4812171469 -27.1717456922
18.5154242243 -27.1687457159
18.5496372881 -27.1751742367
18.5838499437 -27.1809599054
18.6180635517 -27.1882455622
18.6522821936 -27.2034597281
18.6865012438 -27.2193167460
18.7207234231 -27.2401022965
18.7549479154 -27.2645306755
18.7891754008 -27.2936733030
18.8234050631 -27.3262444750
18.8576374464 -27.3631013274
18.8918725508 -27.4042438604
18.9261102403 -27.4494577899
18.9603502426 -27.4983145478
18.9930373456 -27.5504069945
19.0226134104 -27.6007185029
19.0506350037 -27.6517895291
19.0771017887 -27.7030897201
19.1020128509 -27.7531786112
19.1269259710 -27.8065085481
19.1502840037 -27.8596280276
19.1720854257 -27.9101378337
19.1938877029 -27.9619945680
19.2156923318 -28.0175553547
19.2359407243 -28.0710957492
19.2546325952 -28.1221667754
19.2733249649 -28.1740235097
19.2920188312 -28.2282373682
19.3091567461 -28.2808798106
19.3262951598 -28.3343079611
19.3449910216 -28.3916646520
19.3621314307 -28.4482356349
19.3777147909 -28.5015066437
19.3932981512 -28.5547776526
19.4088837064 -28.6115057771
19.4244684634 -28.6669767686
19.4400542181 -28.7240191763
19.4556411702 -28.7829472834
19.4696698011 -28.8365718609
19.4821413404 -28.8868291180
19.4946130400 -28.9373389241
19.5070852206 -28.9886063773
19.5195574013 -29.0398738306
19.5320303302 -29.0923198459
19.5445043816 -29.1465337045
19.5569806778 -29.2042832495
19.5694566000 -29.2614435134
19.5819321479 -29.3180144963
19.5944076959 -29.3745854791
19.6068851146 -29.4341028673
19.6193636557 -29.4953880987
19.6318421969 -29.5566733302
19.6443214863 -29.6191371237
19.6552419558 -29.6755116796
19.6661623006 -29.7316898084
19.6770826454 -29.7878679372
19.6864442950 -29.8381532553
19.6958059446 -29.8884385734
19.7089114435 -29.9575614996
19.7190478623 -30.0039376634
