#log10(E / eV)   log10(E*dN/dE / (cm-3 s-1))
17.02008 -26.82705
17.07535 -26.77418
17.13062 -26.72218
17.18590 -26.66377
17.24117 -26.60906
17.29644 -26.55638
17.35172 -26.49963
17.40699 -26.44325
17.46226 -26.38983
17.51541 -26.33681
17.56856 -26.28121
17.62383 -26.22732
17.67911 -26.17449
17.73438 -26.11590
17.78966 -26.06174
17.84493 -26.00887
17.90020 -25.95231
17.95548 -25.89723
18.01075 -25.84492
18.06602 -25.79057
18.12129 -25.73789
18.17656 -25.68835
18.23183 -25.63852
18.28710 -25.59039
18.34236 -25.54555
18.39763 -25.50259
18.45289 -25.46396
18.50815 -25.42579
18.56341 -25.39205
18.61866 -25.36007
18.67391 -25.33309
18.72916 -25.30924
18.78440 -25.28900
18.83965 -25.27338
18.89489 -25.26026
18.95012 -25.25268
19.00535 -25.24769
19.06058 -25.24713
19.11581 -25.24991
19.17103 -25.25675
19.22625 -25.26470
19.28147 -25.27911
19.33669 -25.29187
19.39190 -25.31072
19.44711 -25.33161
19.50232 -25.35601
19.55753 -25.38262
19.61274 -25.41183
19.66794 -25.44418
19.72314 -25.47837
19.77834 -25.51442
19.83354 -25.55268
19.88873 -25.59409
19.94392 -25.63586
19.99912 -25.68096
20.05431 -25.72828
20.10950 -25.77597
20.16468 -25.82625
20.21987 -25.87911
20.27506 -25.93253
20.33024 -25.98811
20.38542 -26.04621
20.44060 -26.10259
20.49578 -26.16137
20.55096 -26.22107
20.60614 -26.28318
20.65920 -26.34262
20.71225 -26.40453
20.76743 -26.46525
20.82261 -26.52828
20.87354 -26.58905
20.92447 -26.64935
20.97965 -26.70661
