#log10(E / eV)   log10(E*dN/dE / (cm-3 s-1))
17.0156922934 -27.0900260603
17.0612644330 -27.0448840230
17.1047651117 -27.0009663099
17.1482657904 -26.9586610166
17.1938379300 -26.9119572905
17.2394100696 -26.8652535644
17.2849822092 -26.8208532951
17.3305543488 -26.7747254332
17.3761264884 -26.7282136618
17.4216986280 -26.6834294831
17.4672707676 -26.6384533495
17.5128429072 -26.5927093971
17.5584150468 -26.5461976258
17.6039871864 -26.5008375828
17.6495593260 -26.4552855851
17.6951314656 -26.4099255421
17.7407036052 -26.3645654991
17.7862757448 -26.3182456825
17.8318478844 -26.2728856395
17.8774200240 -26.2286773249
17.9229921636 -26.1825494631
17.9685643032 -26.1371894201
18.0141364428 -26.0941328338
18.0597085824 -26.0501164740
18.1052807220 -26.0074437972
18.1508528616 -25.9653469846
18.1964250012 -25.9259375382
18.2419971408 -25.8876798202
18.2875692804 -25.8515336042
18.3331414200 -25.8174988903
18.3787135597 -25.7853837236
18.4242856993 -25.7561478778
18.4698578389 -25.7292154888
18.5154299785 -25.7061221944
18.5610021181 -25.6847564925
18.6065742577 -25.6664620663
18.6521463973 -25.6518147799
18.6977185369 -25.6417744070
18.7432906765 -25.6325018530
18.7888628161 -25.6282201220
18.8344349557 -25.6298889876
18.8800070953 -25.6350130383
18.9255792349 -25.6432083647
18.9711513745 -25.6531312836
19.0167235141 -25.6691967538
19.0622956537 -25.6889093639
19.1078677933 -25.7132288874
19.1534399329 -25.7387001394
19.1990120725 -25.7691622143
19.2445842121 -25.8034633837
19.2901563517 -25.8421795120
19.3357284913 -25.8853105990
19.3792291700 -25.9302487298
19.4206583878 -25.9758037852
19.4600161448 -26.0226753335
19.4973024408 -26.0693149398
19.5325172760 -26.1150187702
19.5635891893 -26.1593202715
19.5946611027 -26.2065250880
19.6257330161 -26.2526289070
19.6547334685 -26.2997685232
19.6837339210 -26.3467874821
19.7106629126 -26.3917478823
19.7375919042 -26.4393225231
19.7665923566 -26.4923743449
19.7935213482 -26.5429654171
19.8183788789 -26.5918498476
19.8432364096 -26.6424938631
19.8680939403 -26.6931378786
19.8908800101 -26.7420953619
19.9115946190 -26.7879586450
19.9323092279 -26.8341034617
19.9530238368 -26.8809521123
19.9737384457 -26.9299122650
19.9944530547 -26.9784501173
20.0151676636 -27.0299440724
20.0358822725 -27.0827049288
20.0545254205 -27.1273391717
20.0710971076 -27.1748266119
20.0897402556 -27.2245284597
20.1083834037 -27.2756027838
20.1249550908 -27.3236180994
20.1415267779 -27.3716334150
20.1580984650 -27.4198749630
20.1746701522 -27.4697755482
20.1912418393 -27.5193744904
20.2078135264 -27.5721406855
20.2243852136 -27.6233232541
20.2388854398 -27.6709893222
20.2533856660 -27.7183034732
20.2699573532 -27.7768762989
20.2865290403 -27.8343933735
20.3010292665 -27.8834671096
20.3134580319 -27.9284964695
20.3300297190 -27.9809811310
